# Region type : patch outlet
# Faces         : 10
# Area          : 3.42015068e-06
# Scale factor  : 1.00000000e+00
# Weight field  : phi
# Time          	weightedAverage(C2H2)	weightedAverage(H2)	weightedAverage(CH4)	weightedAverage(C2H4)	weightedAverage(C4H4)	weightedAverage(T)
0.25000000      	3.34005581e-01	4.23351098e-09	4.19988628e-04	1.20416237e-09	8.10373545e-07	3.59316778e+02
0.50000000      	3.34004843e-01	7.18463691e-09	4.19989099e-04	2.83375443e-09	1.47283693e-06	3.65253280e+02
0.75000000      	3.34001970e-01	2.12778543e-08	4.19991461e-04	1.00506439e-08	3.99150872e-06	3.65964230e+02
1.00000000      	3.33992190e-01	8.83644244e-08	4.20004898e-04	4.39505557e-08	1.21622908e-05	3.65895455e+02
1.25000000      	3.33960282e-01	4.19778833e-07	4.20092559e-04	2.07406401e-07	3.62050740e-05	3.65791269e+02
1.50000000      	3.33862540e-01	1.86085210e-06	4.20618738e-04	1.05065130e-06	9.87986280e-05	3.65756582e+02
1.75000000      	3.33586383e-01	6.93028991e-06	4.23078205e-04	4.85556237e-06	2.46283112e-04	3.65755589e+02
2.00000000      	3.32911551e-01	2.08237475e-05	4.31356124e-04	1.75257249e-05	5.56092733e-04	3.65765281e+02
2.25000000      	3.31541374e-01	5.06985971e-05	4.51719320e-04	4.84872152e-05	1.12097330e-03	3.65782303e+02
2.50000000      	3.29221215e-01	1.02757337e-04	4.90201868e-04	1.06817434e-04	2.01123580e-03	3.65809559e+02
2.75000000      	3.25865761e-01	1.79088452e-04	5.48998025e-04	1.96052295e-04	3.23954041e-03	3.65849209e+02
3.00000000      	3.21604941e-01	2.76566624e-04	6.24816479e-04	3.11789577e-04	4.75059782e-03	3.65900681e+02
3.25000000      	3.16734208e-01	3.88164375e-04	7.10164519e-04	4.43378371e-04	6.43718452e-03	3.65960822e+02
3.50000000      	3.11604441e-01	5.05703022e-04	7.96433600e-04	5.78191582e-04	8.17380203e-03	3.66025297e+02
3.75000000      	3.06535335e-01	6.21960312e-04	8.76414118e-04	7.05176280e-04	9.84353408e-03	3.66089848e+02
4.00000000      	3.01759454e-01	7.31924094e-04	9.45663472e-04	8.16926155e-04	1.13575484e-02	3.66151326e+02
4.25000000      	2.97409523e-01	8.32954812e-04	1.00256189e-03	9.09939928e-04	1.26617829e-02	3.66207635e+02
4.50000000      	2.93533041e-01	9.24302344e-04	1.04763136e-03	9.83798866e-04	1.37345515e-02	3.66258076e+02
4.75000000      	2.90118470e-01	1.00639829e-03	1.08265773e-03	1.03999553e-03	1.45792724e-02	3.66302693e+02
5.00000000      	2.87121499e-01	1.08021125e-03	1.10994312e-03	1.08090044e-03	1.52159167e-02	3.66342046e+02
5.25000000      	2.84485762e-01	1.14678976e-03	1.13179460e-03	1.10906231e-03	1.56733514e-02	3.66376985e+02
5.50000000      	2.82156465e-01	1.20700833e-03	1.15022871e-03	1.12684360e-03	1.59835217e-02	3.66408165e+02
5.75000000      	2.80087572e-01	1.26147885e-03	1.16683306e-03	1.13630708e-03	1.61775909e-02	3.66436351e+02
6.00000000      	2.78244228e-01	1.31056863e-03	1.18272779e-03	1.13924001e-03	1.62836975e-02	3.66461923e+02
6.25000000      	2.76602021e-01	1.35447521e-03	1.19858787e-03	1.13720522e-03	1.63259593e-02	3.66485096e+02
6.50000000      	2.75144577e-01	1.39331662e-03	1.21470207e-03	1.13157626e-03	1.63242964e-02	3.66506106e+02
6.75000000      	2.73860612e-01	1.42721086e-03	1.23105444e-03	1.12355659e-03	1.62945357e-02	3.66524981e+02
7.00000000      	2.72741163e-01	1.45633152e-03	1.24741763e-03	1.11418056e-03	1.62487335e-02	3.66541718e+02
7.25000000      	2.71777477e-01	1.48093534e-03	1.26344681e-03	1.10430310e-03	1.61956964e-02	3.66556282e+02
7.50000000      	2.70959689e-01	1.50136496e-03	1.27876397e-03	1.09459042e-03	1.61415417e-02	3.66568846e+02
7.75000000      	2.70276293e-01	1.51803323e-03	1.29302397e-03	1.08552059e-03	1.60902360e-02	3.66579458e+02
8.00000000      	2.69714209e-01	1.53139768e-03	1.30595863e-03	1.07739704e-03	1.60440895e-02	3.66588241e+02
8.25000000      	2.69259266e-01	1.54193182e-03	1.31739823e-03	1.07037318e-03	1.60041916e-02	3.66595401e+02
8.50000000      	2.68896860e-01	1.55009869e-03	1.32727405e-03	1.06448388e-03	1.59707812e-02	3.66600688e+02
8.75000000      	2.68612637e-01	1.55633014e-03	1.33560700e-03	1.05967878e-03	1.59435468e-02	3.66604722e+02
9.00000000      	2.68393083e-01	1.56101277e-03	1.34248825e-03	1.05585341e-03	1.59218598e-02	3.66607805e+02
9.25000000      	2.68225941e-01	1.56448066e-03	1.34805695e-03	1.05287522e-03	1.59049437e-02	3.66610193e+02
9.50000000      	2.68100468e-01	1.56701359e-03	1.35247890e-03	1.05060342e-03	1.58919920e-02	3.66612020e+02
9.75000000      	2.68007527e-01	1.56883945e-03	1.35592854e-03	1.04890270e-03	1.58822416e-02	3.66613401e+02
10.00000000     	2.67939555e-01	1.57013933e-03	1.35857539e-03	1.04765137e-03	1.58750137e-02	3.66614515e+02
10.25000000     	2.67890442e-01	1.57105390e-03	1.36057499e-03	1.04674534e-03	1.58697316e-02	3.66615359e+02
10.50000000     	2.67855361e-01	1.57169023e-03	1.36206382e-03	1.04609903e-03	1.58659219e-02	3.66615924e+02
10.75000000     	2.67830575e-01	1.57212832e-03	1.36315737e-03	1.04564434e-03	1.58632076e-02	3.66616367e+02
11.00000000     	2.67813242e-01	1.57242694e-03	1.36395040e-03	1.04532857e-03	1.58612957e-02	3.66616668e+02
11.25000000     	2.67801240e-01	1.57262859e-03	1.36451866e-03	1.04511191e-03	1.58599632e-02	3.66616913e+02
11.50000000     	2.67793005e-01	1.57276354e-03	1.36492131e-03	1.04496492e-03	1.58590438e-02	3.66617057e+02
11.75000000     	2.67787405e-01	1.57285309e-03	1.36520361e-03	1.04486626e-03	1.58584153e-02	3.66617169e+02
12.00000000     	2.67783628e-01	1.57291205e-03	1.36539958e-03	1.04480069e-03	1.58579894e-02	3.66617240e+02
12.25000000     	2.67781100e-01	1.57295058e-03	1.36553436e-03	1.04475751e-03	1.58577033e-02	3.66617307e+02
12.50000000     	2.67779421e-01	1.57297557e-03	1.36562624e-03	1.04472933e-03	1.58575124e-02	3.66617335e+02
12.75000000     	2.67778314e-01	1.57299167e-03	1.36568836e-03	1.04471110e-03	1.58573861e-02	3.66617330e+02
13.00000000     	2.67777589e-01	1.57300198e-03	1.36573003e-03	1.04469938e-03	1.58573031e-02	3.66617412e+02
13.25000000     	2.67777116e-01	1.57300854e-03	1.36575777e-03	1.04469192e-03	1.58572489e-02	3.66617426e+02
13.50000000     	2.67776811e-01	1.57301269e-03	1.36577612e-03	1.04468719e-03	1.58572138e-02	3.66617439e+02
13.75000000     	2.67776614e-01	1.57301531e-03	1.36578817e-03	1.04468421e-03	1.58571911e-02	3.66617436e+02
14.00000000     	2.67776488e-01	1.57301694e-03	1.36579603e-03	1.04468236e-03	1.58571766e-02	3.66617450e+02
14.25000000     	2.67776408e-01	1.57301796e-03	1.36580114e-03	1.04468120e-03	1.58571673e-02	3.66617417e+02
14.50000000     	2.67776358e-01	1.57301860e-03	1.36580443e-03	1.04468049e-03	1.58571614e-02	3.66617417e+02
14.75000000     	2.67776326e-01	1.57301899e-03	1.36580654e-03	1.04468005e-03	1.58571576e-02	3.66617450e+02
15.00000000     	2.67776306e-01	1.57301923e-03	1.36580789e-03	1.04467978e-03	1.58571553e-02	3.66617474e+02
15.25000000     	2.67776293e-01	1.57301937e-03	1.36580875e-03	1.04467962e-03	1.58571538e-02	3.66617433e+02
15.50000000     	2.67776285e-01	1.57301946e-03	1.36580929e-03	1.04467952e-03	1.58571528e-02	3.66617432e+02
15.75000000     	2.67776281e-01	1.57301951e-03	1.36580963e-03	1.04467946e-03	1.58571523e-02	3.66617421e+02
16.00000000     	2.67776278e-01	1.57301954e-03	1.36580985e-03	1.04467942e-03	1.58571519e-02	3.66617460e+02
16.25000000     	2.67776276e-01	1.57301956e-03	1.36580998e-03	1.04467940e-03	1.58571517e-02	3.66617449e+02
16.50000000     	2.67776275e-01	1.57301957e-03	1.36581006e-03	1.04467939e-03	1.58571516e-02	3.66617440e+02
16.75000000     	2.67776274e-01	1.57301957e-03	1.36581011e-03	1.04467938e-03	1.58571515e-02	3.66617457e+02
17.00000000     	2.67776274e-01	1.57301958e-03	1.36581015e-03	1.04467938e-03	1.58571515e-02	3.66617450e+02
17.25000000     	2.67776274e-01	1.57301958e-03	1.36581017e-03	1.04467938e-03	1.58571515e-02	3.66617430e+02
17.50000000     	2.67776274e-01	1.57301958e-03	1.36581018e-03	1.04467937e-03	1.58571515e-02	3.66617455e+02
17.75000000     	2.67776273e-01	1.57301958e-03	1.36581018e-03	1.04467937e-03	1.58571515e-02	3.66617458e+02
18.00000000     	2.67776273e-01	1.57301958e-03	1.36581019e-03	1.04467937e-03	1.58571515e-02	3.66617467e+02
18.25000000     	2.67776273e-01	1.57301958e-03	1.36581019e-03	1.04467937e-03	1.58571515e-02	3.66617478e+02
18.50000000     	2.67776273e-01	1.57301958e-03	1.36581019e-03	1.04467937e-03	1.58571515e-02	3.66617436e+02
18.75000000     	2.67776273e-01	1.57301958e-03	1.36581019e-03	1.04467937e-03	1.58571515e-02	3.66617480e+02
19.00000000     	2.67776273e-01	1.57301958e-03	1.36581019e-03	1.04467937e-03	1.58571515e-02	3.66617466e+02
19.25000000     	2.67776273e-01	1.57301958e-03	1.36581019e-03	1.04467937e-03	1.58571514e-02	3.66617456e+02
19.50000000     	2.67776273e-01	1.57301958e-03	1.36581019e-03	1.04467937e-03	1.58571514e-02	3.66617473e+02
19.75000000     	2.67776274e-01	1.57301958e-03	1.36581019e-03	1.04467937e-03	1.58571514e-02	3.66617487e+02
20.00000000     	2.67776274e-01	1.57301957e-03	1.36581019e-03	1.04467937e-03	1.58571514e-02	3.66617437e+02
